 #        Time[fs] E-potential           E-kinetic     E-Total    E-Total-Avg
           0.48   -0.7633668458E+02    0.2168283255E-01   -0.7631500175E+02   -0.7631500175E+02
           0.97   -0.7633635915E+02    0.2167467312E-01   -0.7631468448E+02   -0.7631484311E+02
           1.45   -0.7633506153E+02    0.2097926496E-01   -0.7631408226E+02   -0.7631458950E+02
           1.94   -0.7633229551E+02    0.1988212897E-01   -0.7631241339E+02   -0.7631404547E+02
           2.42   -0.7632819950E+02    0.1893524074E-01   -0.7630926426E+02   -0.7631308923E+02
           2.90   -0.7632356981E+02    0.1994938710E-01   -0.7630362042E+02   -0.7631151109E+02
           3.39   -0.7631908774E+02    0.2000963555E-01   -0.7629907811E+02   -0.7630973495E+02
           3.87   -0.7631517347E+02    0.1623706485E-01   -0.7629893641E+02   -0.7630838513E+02
           4.35   -0.7631184548E+02    0.1200356830E-01   -0.7629984191E+02   -0.7630743589E+02
           4.84   -0.7630855933E+02    0.1049554763E-01   -0.7629806378E+02   -0.7630649868E+02
           5.32   -0.7630523330E+02    0.9581737918E-02   -0.7629565156E+02   -0.7630551257E+02
           5.81   -0.7630283568E+02    0.8099098571E-02   -0.7629473659E+02   -0.7630461458E+02
           6.29   -0.7630212068E+02    0.9192897371E-02   -0.7629292779E+02   -0.7630371559E+02
           6.77   -0.7630325156E+02    0.1507087737E-01   -0.7628818068E+02   -0.7630260596E+02
           7.26   -0.7630647404E+02    0.2601637437E-01   -0.7628045767E+02   -0.7630112940E+02
           7.74   -0.7631214442E+02    0.3509736491E-01   -0.7627704705E+02   -0.7629962426E+02
           8.22   -0.7631919184E+02    0.2776560508E-01   -0.7629142623E+02   -0.7629914202E+02
           8.71   -0.7632455108E+02    0.1468002717E-01   -0.7630987106E+02   -0.7629973808E+02
           9.19   -0.7632779758E+02    0.1032360437E-01   -0.7631747398E+02   -0.7630067154E+02
           9.68   -0.7633003428E+02    0.9261556348E-02   -0.7632077272E+02   -0.7630167660E+02
          10.16   -0.7633178421E+02    0.7887278017E-02   -0.7632389693E+02   -0.7630273471E+02
          10.64   -0.7633327172E+02    0.6257540387E-02   -0.7632701418E+02   -0.7630383833E+02
          11.13   -0.7633453972E+02    0.5038477417E-02   -0.7632950125E+02   -0.7630495411E+02
          11.61   -0.7633550702E+02    0.4200256789E-02   -0.7633130677E+02   -0.7630605213E+02
          12.09   -0.7633608113E+02    0.3508455767E-02   -0.7633257267E+02   -0.7630711296E+02
          12.58   -0.7633624633E+02    0.2891576837E-02   -0.7633335476E+02   -0.7630812226E+02
          13.06   -0.7633609792E+02    0.2563861481E-02   -0.7633353406E+02   -0.7630906343E+02
          13.55   -0.7633582728E+02    0.3290724276E-02   -0.7633253655E+02   -0.7630990176E+02
          14.03   -0.7633560181E+02    0.5640670893E-02   -0.7632996114E+02   -0.7631059346E+02
          14.51   -0.7633548888E+02    0.8198884328E-02   -0.7632729000E+02   -0.7631115001E+02
          15.00   -0.7633566007E+02    0.1098312453E-01   -0.7632467695E+02   -0.7631158637E+02
          15.48   -0.7633620921E+02    0.1947306294E-01   -0.7631673615E+02   -0.7631174730E+02
          15.96   -0.7633600831E+02    0.2544573884E-01   -0.7631056258E+02   -0.7631171140E+02
          16.45   -0.7633499089E+02    0.1986851738E-01   -0.7631512237E+02   -0.7631181172E+02
          16.93   -0.7633425643E+02    0.1521072977E-01   -0.7631904570E+02   -0.7631201840E+02
          17.42   -0.7633364331E+02    0.1031726085E-01   -0.7632332605E+02   -0.7631233250E+02
          17.90   -0.7633323036E+02    0.7254870270E-02   -0.7632597549E+02   -0.7631270123E+02
          18.38   -0.7633316393E+02    0.7746847633E-02   -0.7632541708E+02   -0.7631303586E+02
          18.87   -0.7633320716E+02    0.1186457740E-01   -0.7632134258E+02   -0.7631324885E+02
          19.35   -0.7633265461E+02    0.1431048112E-01   -0.7631834413E+02   -0.7631337624E+02
          19.83   -0.7633118285E+02    0.1156323221E-01   -0.7631961962E+02   -0.7631352851E+02
          20.32   -0.7632949552E+02    0.9124825239E-02   -0.7632037070E+02   -0.7631369142E+02
          20.80   -0.7632837435E+02    0.7838960742E-02   -0.7632053539E+02   -0.7631385059E+02
          21.29   -0.7632832042E+02    0.9013931971E-02   -0.7631930649E+02   -0.7631397458E+02
          21.77   -0.7632954466E+02    0.1845518257E-01   -0.7631108948E+02   -0.7631391047E+02
          22.25   -0.7633083708E+02    0.1678635898E-01   -0.7631405072E+02   -0.7631391352E+02
          22.74   -0.7633153750E+02    0.9232055754E-02   -0.7632230544E+02   -0.7631409207E+02
          23.22   -0.7633232742E+02    0.1151741393E-01   -0.7632081001E+02   -0.7631423203E+02
          23.71   -0.7633301449E+02    0.1215095586E-01   -0.7632086353E+02   -0.7631436736E+02
          24.19   -0.7633331358E+02    0.7977175753E-02   -0.7632533641E+02   -0.7631458674E+02
          24.67   -0.7633342328E+02    0.6578053269E-02   -0.7632684523E+02   -0.7631482711E+02
          25.16   -0.7633372760E+02    0.1013569867E-01   -0.7632359191E+02   -0.7631499566E+02
          25.64   -0.7633397300E+02    0.1171375820E-01   -0.7632225925E+02   -0.7631513271E+02
          26.12   -0.7633365195E+02    0.7564994747E-02   -0.7632608696E+02   -0.7631533557E+02
          26.61   -0.7633301848E+02    0.5296758725E-02   -0.7632772172E+02   -0.7631556077E+02
          27.09   -0.7633256815E+02    0.5210059278E-02   -0.7632735809E+02   -0.7631577144E+02
          27.58   -0.7633278604E+02    0.6338683869E-02   -0.7632644735E+02   -0.7631595873E+02
          28.06   -0.7633392811E+02    0.9308598338E-02   -0.7632461952E+02   -0.7631610806E+02
          28.54   -0.7633537417E+02    0.1220936255E-01   -0.7632316481E+02   -0.7631622766E+02
          29.03   -0.7633587892E+02    0.1116984298E-01   -0.7632470908E+02   -0.7631636902E+02
          29.51   -0.7633520487E+02    0.1021201163E-01   -0.7632499286E+02   -0.7631651039E+02
          29.99   -0.7633409979E+02    0.1336870291E-01   -0.7632073109E+02   -0.7631657847E+02
          30.48   -0.7633325264E+02    0.1317925487E-01   -0.7632007339E+02   -0.7631663394E+02
          30.96   -0.7633312451E+02    0.1004048494E-01   -0.7632308402E+02   -0.7631673473E+02
          31.45   -0.7633369308E+02    0.8874414901E-02   -0.7632481866E+02   -0.7631685909E+02
          31.93   -0.7633455293E+02    0.9904861403E-02   -0.7632464806E+02   -0.7631697711E+02
          32.41   -0.7633534532E+02    0.1067449739E-01   -0.7632467082E+02   -0.7631709194E+02
          32.90   -0.7633598034E+02    0.1028304502E-01   -0.7632569730E+02   -0.7631721849E+02
          33.38   -0.7633665062E+02    0.1149902482E-01   -0.7632515160E+02   -0.7631733346E+02
          33.86   -0.7633706853E+02    0.1807790367E-01   -0.7631899062E+02   -0.7631735714E+02
          34.35   -0.7633567279E+02    0.2242744944E-01   -0.7631324534E+02   -0.7631729922E+02
          34.83   -0.7633255641E+02    0.1459879942E-01   -0.7631795761E+02   -0.7631730837E+02
          35.32   -0.7633032356E+02    0.8061914163E-02   -0.7632226164E+02   -0.7631737622E+02
          35.80   -0.7632978055E+02    0.6985406360E-02   -0.7632279514E+02   -0.7631744945E+02
          36.28   -0.7633039310E+02    0.8334333134E-02   -0.7632205876E+02   -0.7631751091E+02
          36.77   -0.7633165448E+02    0.1127619800E-01   -0.7632037828E+02   -0.7631754864E+02
          37.25   -0.7633317956E+02    0.1616117417E-01   -0.7631701839E+02   -0.7631754175E+02
          37.73   -0.7633461045E+02    0.2169406971E-01   -0.7631291638E+02   -0.7631748245E+02
          38.22   -0.7633574559E+02    0.2217834002E-01   -0.7631356725E+02   -0.7631743289E+02
          38.70   -0.7633643071E+02    0.1932746515E-01   -0.7631710325E+02   -0.7631742877E+02
          39.19   -0.7633606528E+02    0.1407232292E-01   -0.7632199296E+02   -0.7631748512E+02
          39.67   -0.7633467446E+02    0.6025986546E-02   -0.7632864847E+02   -0.7631762126E+02
          40.15   -0.7633347315E+02    0.2674915020E-02   -0.7633079824E+02   -0.7631778002E+02
          40.64   -0.7633320516E+02    0.2311739104E-02   -0.7633089342E+02   -0.7631793613E+02
          41.12   -0.7633416183E+02    0.5059064141E-02   -0.7632910277E+02   -0.7631806750E+02
          41.60   -0.7633606833E+02    0.1422346823E-01   -0.7632184486E+02   -0.7631811142E+02
          42.09   -0.7633714625E+02    0.3136860764E-01   -0.7630577765E+02   -0.7631796965E+02
          42.57   -0.7633410688E+02    0.3436969192E-01   -0.7629973719E+02   -0.7631776247E+02
          43.06   -0.7632912581E+02    0.2038122402E-01   -0.7630874459E+02   -0.7631766114E+02
          43.54   -0.7632647551E+02    0.2554625233E-01   -0.7630092926E+02   -0.7631747523E+02
          44.02   -0.7632544798E+02    0.2839455335E-01   -0.7629705343E+02   -0.7631725082E+02
          44.51   -0.7632532638E+02    0.1629018850E-01   -0.7630903619E+02   -0.7631716153E+02
          44.99   -0.7632707213E+02    0.1039511541E-01   -0.7631667702E+02   -0.7631715632E+02
          45.48   -0.7633011621E+02    0.1688381301E-01   -0.7631323239E+02   -0.7631711457E+02
          45.96   -0.7633340291E+02    0.2335044981E-01   -0.7631005246E+02   -0.7631704024E+02
          46.44   -0.7633578229E+02    0.2057399102E-01   -0.7631520830E+02   -0.7631702115E+02
          46.93   -0.7633630756E+02    0.1535080051E-01   -0.7632095676E+02   -0.7631706173E+02
          47.41   -0.7633506987E+02    0.1197168162E-01   -0.7632309819E+02   -0.7631712332E+02
          47.89   -0.7633313353E+02    0.1120273164E-01   -0.7632193080E+02   -0.7631717188E+02
          48.38   -0.7633160998E+02    0.1324139098E-01   -0.7631836859E+02   -0.7631718385E+02
          48.86   -0.7633092439E+02    0.1519112502E-01   -0.7631573326E+02   -0.7631716949E+02
          49.35   -0.7633116861E+02    0.1516581002E-01   -0.7631600280E+02   -0.7631715805E+02
          49.83   -0.7633225080E+02    0.1481956174E-01   -0.7631743124E+02   -0.7631716070E+02
          50.31   -0.7633375279E+02    0.1612444403E-01   -0.7631762835E+02   -0.7631716520E+02
          50.80   -0.7633513521E+02    0.1853082708E-01   -0.7631660438E+02   -0.7631715986E+02
          51.28   -0.7633589260E+02    0.1924253091E-01   -0.7631665007E+02   -0.7631715505E+02
          51.76   -0.7633611593E+02    0.1639288811E-01   -0.7631972304E+02   -0.7631717905E+02
          52.25   -0.7633616672E+02    0.1392217907E-01   -0.7632224454E+02   -0.7631722595E+02
          52.73   -0.7633625520E+02    0.1234702045E-01   -0.7632390818E+02   -0.7631728726E+02
          53.22   -0.7633646673E+02    0.1515888661E-01   -0.7632130785E+02   -0.7631732381E+02
          53.70   -0.7633570650E+02    0.2294204713E-01   -0.7631276446E+02   -0.7631728273E+02
          54.18   -0.7633263830E+02    0.1209059031E-01   -0.7632054771E+02   -0.7631731188E+02
          54.67   -0.7633007895E+02    0.5773059472E-02   -0.7632430589E+02   -0.7631737378E+02
          55.15   -0.7632922334E+02    0.4723339718E-02   -0.7632450000E+02   -0.7631743629E+02
          55.63   -0.7632989191E+02    0.5935346901E-02   -0.7632395657E+02   -0.7631749299E+02
          56.12   -0.7633129417E+02    0.8698532340E-02   -0.7632259564E+02   -0.7631753697E+02
          56.60   -0.7633215858E+02    0.1212320610E-01   -0.7632003537E+02   -0.7631755833E+02
          57.09   -0.7633136539E+02    0.1396011271E-01   -0.7631740528E+02   -0.7631755703E+02
          57.57   -0.7632898642E+02    0.1281721879E-01   -0.7631616920E+02   -0.7631754537E+02
          58.05   -0.7632620196E+02    0.1233679977E-01   -0.7631386516E+02   -0.7631751470E+02
          58.54   -0.7632395167E+02    0.1559951516E-01   -0.7630835215E+02   -0.7631743898E+02
          59.02   -0.7632254602E+02    0.1520797457E-01   -0.7630733805E+02   -0.7631735618E+02
          59.50   -0.7632243696E+02    0.1111719888E-01   -0.7631131976E+02   -0.7631730711E+02
          59.99   -0.7632441029E+02    0.1303241794E-01   -0.7631137788E+02   -0.7631725929E+02
          60.47   -0.7632857874E+02    0.2215095111E-01   -0.7630642779E+02   -0.7631717264E+02
          60.96   -0.7633301240E+02    0.2552872919E-01   -0.7630748367E+02   -0.7631709574E+02
          61.44   -0.7633520881E+02    0.1708171020E-01   -0.7631812710E+02   -0.7631710386E+02
          61.92   -0.7633553993E+02    0.1215123194E-01   -0.7632338870E+02   -0.7631715296E+02
          62.41   -0.7633532085E+02    0.1235478348E-01   -0.7632296607E+02   -0.7631719803E+02
          62.89   -0.7633532336E+02    0.1504909226E-01   -0.7632027426E+02   -0.7631722169E+02
          63.37   -0.7633564396E+02    0.1095941350E-01   -0.7632468454E+02   -0.7631727866E+02
          63.86   -0.7633596600E+02    0.5863068887E-02   -0.7633010293E+02   -0.7631737581E+02
          64.34   -0.7633626798E+02    0.6392664918E-02   -0.7632987531E+02   -0.7631746979E+02
          64.83   -0.7633656221E+02    0.1040933622E-01   -0.7632615287E+02   -0.7631753459E+02
          65.31   -0.7633662636E+02    0.1497714943E-01   -0.7632164921E+02   -0.7631756507E+02
          65.79   -0.7633602687E+02    0.1627351659E-01   -0.7631975335E+02   -0.7631758116E+02
          66.28   -0.7633410418E+02    0.1777235273E-01   -0.7631633183E+02   -0.7631757204E+02
          66.76   -0.7633010161E+02    0.1940967453E-01   -0.7631069193E+02   -0.7631752218E+02
          67.24   -0.7632490272E+02    0.1442063517E-01   -0.7631048209E+02   -0.7631747154E+02
          67.73   -0.7632053709E+02    0.1018253502E-01   -0.7631035455E+02   -0.7631742070E+02
          68.21   -0.7631774560E+02    0.8096993407E-02   -0.7630964861E+02   -0.7631736558E+02
          68.70   -0.7631656946E+02    0.6846149627E-02   -0.7630972331E+02   -0.7631731176E+02
          69.18   -0.7631705462E+02    0.7938424590E-02   -0.7630911620E+02   -0.7631725445E+02
          69.66   -0.7631933152E+02    0.1234665651E-01   -0.7630698487E+02   -0.7631718313E+02
          70.15   -0.7632377471E+02    0.2500015502E-01   -0.7629877456E+02   -0.7631705618E+02
          70.63   -0.7633005877E+02    0.4907012729E-01   -0.7628098864E+02   -0.7631680914E+02
          71.12   -0.7633361921E+02    0.3733324476E-01   -0.7629628597E+02   -0.7631666953E+02
          71.60   -0.7633413975E+02    0.2901538026E-01   -0.7630512437E+02   -0.7631659152E+02
          72.08   -0.7633383147E+02    0.2126550376E-01   -0.7631256596E+02   -0.7631656450E+02
          72.57   -0.7633360962E+02    0.1369333599E-01   -0.7631991629E+02   -0.7631658685E+02
          73.05   -0.7633386751E+02    0.8495770722E-02   -0.7632537174E+02   -0.7631664502E+02
          73.53   -0.7633454683E+02    0.6483679090E-02   -0.7632806316E+02   -0.7631672014E+02
          74.02   -0.7633543489E+02    0.6623842223E-02   -0.7632881105E+02   -0.7631679917E+02
          74.50   -0.7633636957E+02    0.9263897670E-02   -0.7632710567E+02   -0.7631686609E+02
          74.99   -0.7633707310E+02    0.1210345374E-01   -0.7632496965E+02   -0.7631691838E+02
          75.47   -0.7633723100E+02    0.1095742690E-01   -0.7632627357E+02   -0.7631697834E+02
          75.95   -0.7633689034E+02    0.1098006000E-01   -0.7632591028E+02   -0.7631703524E+02
          76.44   -0.7633618939E+02    0.1622804002E-01   -0.7631996135E+02   -0.7631705376E+02
          76.92   -0.7633510155E+02    0.2497406631E-01   -0.7631012748E+02   -0.7631701019E+02
          77.40   -0.7633350396E+02    0.2573624290E-01   -0.7630776772E+02   -0.7631695243E+02
          77.89   -0.7633192641E+02    0.2251294556E-01   -0.7630941346E+02   -0.7631690560E+02
          78.37   -0.7633188652E+02    0.3074338524E-01   -0.7630114313E+02   -0.7631680830E+02
          78.86   -0.7633176963E+02    0.2107125491E-01   -0.7631069838E+02   -0.7631677082E+02
          79.34   -0.7633147450E+02    0.1045761540E-01   -0.7632101688E+02   -0.7631679671E+02
          79.82   -0.7633188185E+02    0.7014331433E-02   -0.7632486752E+02   -0.7631684562E+02
          80.31   -0.7633293945E+02    0.7475935018E-02   -0.7632546352E+02   -0.7631689754E+02
          80.79   -0.7633433909E+02    0.1279479487E-01   -0.7632154429E+02   -0.7631692536E+02
          81.27   -0.7633509022E+02    0.1484985941E-01   -0.7632024036E+02   -0.7631694510E+02
          81.76   -0.7633442563E+02    0.1257292506E-01   -0.7632185270E+02   -0.7631697414E+02
          82.24   -0.7633208789E+02    0.1181618578E-01   -0.7632027171E+02   -0.7631699353E+02
          82.73   -0.7632715699E+02    0.1273340432E-01   -0.7631442358E+02   -0.7631697850E+02
          83.21   -0.7632033262E+02    0.1297906449E-01   -0.7630735356E+02   -0.7631692254E+02
          83.69   -0.7631660739E+02    0.1609712395E-01   -0.7630051026E+02   -0.7631682768E+02
          84.18   -0.7632002886E+02    0.2906223454E-01   -0.7629096662E+02   -0.7631667905E+02
          84.66   -0.7632637588E+02    0.3447989184E-01   -0.7629189599E+02   -0.7631653743E+02
          85.14   -0.7633000323E+02    0.2536703928E-01   -0.7630463619E+02   -0.7631646981E+02
          85.63   -0.7633320333E+02    0.2853266904E-01   -0.7630467066E+02   -0.7631640315E+02
          86.11   -0.7633525807E+02    0.2251239603E-01   -0.7631274567E+02   -0.7631638260E+02
          86.60   -0.7633510403E+02    0.1201376407E-01   -0.7632309026E+02   -0.7631642007E+02
          87.08   -0.7633420934E+02    0.9201550225E-02   -0.7632500779E+02   -0.7631646778E+02
          87.56   -0.7633348593E+02    0.9430217195E-02   -0.7632405571E+02   -0.7631650971E+02
          88.05   -0.7633333220E+02    0.8539460178E-02   -0.7632479274E+02   -0.7631655522E+02
          88.53   -0.7633395269E+02    0.7868001492E-02   -0.7632608469E+02   -0.7631660729E+02
          89.01   -0.7633517748E+02    0.8786986181E-02   -0.7632639049E+02   -0.7631666046E+02
          89.50   -0.7633637163E+02    0.9787731881E-02   -0.7632658390E+02   -0.7631671410E+02
          89.98   -0.7633685058E+02    0.9460881072E-02   -0.7632738970E+02   -0.7631677150E+02
          90.47   -0.7633670693E+02    0.1031493624E-01   -0.7632639200E+02   -0.7631682294E+02
          90.95   -0.7633621528E+02    0.1130010059E-01   -0.7632491518E+02   -0.7631686599E+02
          91.43   -0.7633539578E+02    0.1208449420E-01   -0.7632331128E+02   -0.7631690009E+02
          91.92   -0.7633448786E+02    0.1339006866E-01   -0.7632109779E+02   -0.7631692218E+02
          92.40   -0.7633388787E+02    0.1384603212E-01   -0.7632004183E+02   -0.7631693852E+02
          92.89   -0.7633364936E+02    0.1634462721E-01   -0.7631730473E+02   -0.7631694042E+02
          93.37   -0.7633327772E+02    0.2110636152E-01   -0.7631217136E+02   -0.7631691571E+02
          93.85   -0.7633249099E+02    0.1483217490E-01   -0.7631765882E+02   -0.7631691954E+02
          94.34   -0.7633195516E+02    0.9812451873E-02   -0.7632214270E+02   -0.7631694633E+02
          94.82   -0.7633219394E+02    0.1316764769E-01   -0.7631902629E+02   -0.7631695694E+02
          95.30   -0.7633254948E+02    0.2309341686E-01   -0.7630945606E+02   -0.7631691887E+02
          95.79   -0.7633244177E+02    0.2791084287E-01   -0.7630453092E+02   -0.7631685630E+02
          96.27   -0.7633244945E+02    0.2071670284E-01   -0.7631173275E+02   -0.7631683055E+02
          96.76   -0.7633217539E+02    0.1064050564E-01   -0.7632153488E+02   -0.7631685407E+02
          97.24   -0.7633194640E+02    0.5503343805E-02   -0.7632644305E+02   -0.7631690178E+02
          97.72   -0.7633229952E+02    0.4307208590E-02   -0.7632799232E+02   -0.7631695668E+02
          98.21   -0.7633336860E+02    0.6059562828E-02   -0.7632730904E+02   -0.7631700768E+02
          98.69   -0.7633474906E+02    0.9125142414E-02   -0.7632562392E+02   -0.7631704992E+02
          99.17   -0.7633557380E+02    0.9640425050E-02   -0.7632593337E+02   -0.7631709325E+02
          99.66   -0.7633533555E+02    0.7126315797E-02   -0.7632820924E+02   -0.7631714721E+02
         100.14   -0.7633444081E+02    0.4844770527E-02   -0.7632959604E+02   -0.7631720735E+02
